time,hat{D_{q}},theta,e_{theta},tau_{q}
0,0,0,0.174532925199433,99.629819393158
0.1,-0.079651602667557,0.015905305007433,0.158627620192,100
0.2,-0.748234841432172,0.0416072225976,0.132925702601833,99.7629225254059
0.3,-1.83912861189342,0.065384022487394,0.109148902712039,99.7926831245422
0.4,-3.01304862493775,0.086271388178443,0.08826153702099,100
0.5,-4.16699652359677,0.104218455373552,0.070314469825881,99.6621549129486
0.6,-5.19661566824628,0.119231431933353,0.05530149326608,98.1488645076752
0.7,-6.24548476430668,0.131439540027178,0.043093385172255,97.5415825843811
0.8,-7.10010230893471,0.140891344919159,0.033641580280274,95.3788757324219
0.9,-7.95611746661915,0.147621455043511,0.026911470155922,93.6016380786896
1,-8.77902802236736,0.1520742241298,0.022458701069633,92.2057390213013
1.1,-9.56399773223112,0.15482160020794,0.019711324991493,89.735472202301
1.2,-10.1738780480672,0.156532208274517,0.018000716924916,88.6455297470093
1.3,-10.6195601205777,0.157725862030094,0.016807063169339,87.6611053943634
1.4,-11.0540716312302,0.159115301794474,0.015417623404959,80.108118057251
1.5,-11.435718583578,0.16155451332078,0.012978411878653,72.3067998886108
1.6,-11.4675963290166,0.164770577990069,0.009762347209364,61.7352485656738
1.7,-11.5263912765672,0.167494911798776,0.007038013400657,49.6618151664734
1.8,-11.4415473584637,0.169670816550997,0.004862108648436,42.1921759843826
1.9,-11.2465309459775,0.171603298670746,0.002929626528687,37.7343356609344
2,-10.9176466299004,0.173229706161025,0.001303219038408,25.2977222204208
2.1,-10.5323007479839,0.174583822999805,-5.08978003724847E-05,18.120114505291
2.2,-10.0366547667357,0.175989216890545,-0.001456291691112,11.7748342454433
2.3,-9.46188343372439,0.177338348540371,-0.002805423340938,2.16286405920982
2.4,-8.80555533658947,0.178689220589601,-0.004156295390168,-3.84512171149254
2.5,-8.02903626723653,0.180408444059709,-0.005875518860276,-13.4685233235359
2.6,-7.24434009185061,0.182148134845146,-0.007615209645713,-18.3781996369362
2.7,-6.32660614821373,0.183690039354702,-0.009157114155269,-14.2045423388481
2.8,-5.44848314577449,0.185170774832586,-0.010637849633153,-10.5656489729881
2.9,-4.67049178502391,0.186510518971376,-0.011977593771943,-13.7561842799187
3,-3.6576961219491,0.187539215889471,-0.013006290690038,-19.6937963366508
3.1,-2.74558444827048,0.188182823402728,-0.013649898203296,-15.9102320671082
3.2,-1.79665769497024,0.18840148646781,-0.013868561268377,-19.4919630885124
3.3,-0.899575419272179,0.188265182688167,-0.013732257488734,-16.3106262683868
3.4,0.02703224019163,0.187811671564012,-0.013278746364579,-16.9653937220573
3.5,0.829625352311524,0.18707286959454,-0.012539944395107,-11.2014196813107
3.6,1.67808309350764,0.18609279843723,-0.011559873237797,-6.64712712168694
3.7,2.4944912879836,0.18490575144699,-0.010372826247557,-5.71625307202339
3.8,3.20178081172726,0.183520398621723,-0.00898747342229,3.09987310320139
3.9,3.80956471118672,0.181968370950029,-0.007435445750596,-1.65223143994808
4,4.37634471377605,0.180308897110124,-0.005775971910691,-0.116559676826
4.1,4.94779885398104,0.17874091964247,-0.004207994443037,3.39047610759735
4.2,5.44681039144302,0.17749902847826,-0.002966103278827,10.6878720223904
4.3,5.8270132612953,0.176516034297596,-0.001983109098163,14.6020799875259
4.4,6.13353616307687,0.175684254526346,-0.001151329326913,16.4036571979523
4.5,6.31185332806134,0.174875391041604,-0.000342465842171,26.5619784593582
4.6,6.46446581831853,0.174174515404188,0.000358409795245,25.2878785133362
4.7,6.53793702130974,0.173586126939814,0.000946798259619,35.1316541433334
4.8,6.56853767250924,0.173157744382832,0.001375180816601,31.5561503171921
4.9,6.48904099865912,0.172821204625272,0.001711720574161,35.2536290884018
5,6.39406507257887,0.172575852078142,0.001957073121291,36.9154542684555
5.1,6.22507814097203,0.172373519895182,0.002159405304251,45.6793010234833
5.2,6.02069724753997,0.17239490859033,0.002138016609103,54.3557465076447
5.3,5.65968670478579,0.172287218316162,0.002245706883271,52.2071003913879
5.4,5.37916513653858,0.172270903525379,0.002262021674054,51.4292001724243
5.5,5.00375380492272,0.172466256662377,0.002066668537056,53.0322074890137
5.6,4.65641948881112,0.17276285535604,0.001770069843393,51.4259040355682
5.7,4.20511676397647,0.173126409645611,0.001406515553822,43.3131903409958
5.8,3.87234942402721,0.173455695803063,0.00107722939637,42.6563858985901
5.9,3.40587847751827,0.173803380656205,0.000729544543228,42.0706331729889
6,3.01678083279952,0.174197064709004,0.000335860490429,39.4563794136047
6.1,2.59121115599658,0.174564303364076,-3.13781646428257E-05,31.6012799739838
6.2,2.18142566184998,0.174850209361132,-0.000317284161699,29.1688591241837
6.3,1.71656946480618,0.17510952671344,-0.000576601514007,21.6831803321838
6.4,1.44547700348713,0.175277387467484,-0.000744462268051,20.4822093248367
6.5,1.1162890222292,0.175562729998871,-0.001029804799438,15.3704687952995
6.6,0.783392172000925,0.175851040514456,-0.001318115315023,18.0828958749771
6.7,0.495587270938906,0.176031837863113,-0.00149891266368,15.8025607466698
6.8,0.235416633935076,0.176187006095011,-0.001654080895578,13.4843930602074
6.9,0.056929441959222,0.176340367440534,-0.001807442241101,10.2654121816158
7,-0.164307648096262,0.176495089865829,-0.001962164666396,7.38072544336319
7.1,-0.342161772970508,0.176581536046701,-0.002048610847268,16.1581486463547
7.2,-0.493131672311158,0.176675647224045,-0.002142722024612,12.6971632242203
7.3,-0.638312793643736,0.176783354524849,-0.002250429325416,8.55683758854866
7.4,-0.61765225965954,0.176756057659441,-0.002223132460008,14.232012629509
7.5,-0.667534783557773,0.176956288940961,-0.002423363741528,16.7599946260452
7.6,-0.750142128861962,0.177250406054573,-0.00271748085514,22.8680208325386
7.7,-0.83494260205818,0.177465300022899,-0.002932374823466,23.5244452953339
7.8,-0.798152806241282,0.177645770237332,-0.003112845037899,17.7645981311798
7.9,-0.812187588992523,0.177895934257177,-0.003363009057744,13.6641204357147
8,-0.791157340069391,0.17809423387327,-0.003561308673837,18.0124923586845
8.1,-0.748865302754121,0.178263302742929,-0.003730377543496,19.8782369494438
8.2,-0.706041657868328,0.178507937278086,-0.003975012078653,13.3259236812592
8.3,-0.69256850319933,0.178761082593861,-0.004228157394428,17.4314841628075
8.4,-0.647207105791894,0.178980109041689,-0.004447183842256,15.7491594552994
8.5,-0.680922308570914,0.179174029148022,-0.004641103948589,11.9545444846153
8.6,-0.58055936578726,0.179370138444362,-0.004837213244929,8.44229683279991
8.7,-0.639889140001742,0.179535007159841,-0.005002081960409,4.39740419387817
8.8,-0.711763548399006,0.179685985502831,-0.005153060303398,-5.4290734231472
8.9,-0.573292394023088,0.179708316666797,-0.005175391467364,-4.32729721069336
9,-0.533011376713554,0.179726111646704,-0.005193186447271,-4.62582483887672
9.1,-0.594535870902484,0.179684623739279,-0.005151698539846,-2.75269001722336
9.2,-0.616061349018531,0.179520530225697,-0.004987605026264,-2.1792208775878
9.3,-0.648132496361585,0.179201332545309,-0.004668407345876,-2.32042409479618
9.4,-0.732738171111357,0.178781170091521,-0.004248244892088,-0.085180997848511
9.5,-0.757037888637141,0.178279676093264,-0.003746750893831,5.36059774458408
9.6,-0.851954935760733,0.177791296800366,-0.003258371600933,3.07403448969126
9.7,-0.905289830507637,0.177263941323138,-0.002731016123705,8.45685973763466
9.8,-0.9999072096425,0.176772806991205,-0.002239881791772,10.9334759414196
9.9,-1.00994653996792,0.176230135900199,-0.001697210700766,15.6619921326637
10,-1.05851425718638,0.175616322907107,-0.001083397707674,24.5432555675507
10.1,-1.5678750536163,0.18581524875016,0.163250601648706,100
10.2,-1.33489484035351,0.203817183972636,0.14524866642623,99.9885082244873
10.3,-1.3450452751662,0.221952095191582,0.127113755207284,99.5416224002838
10.4,-1.39414957900553,0.239008460689733,0.110057389709133,99.9980390071869
10.5,-1.43981220092708,0.254837137626999,0.094228712771867,99.766343832016
10.6,-1.46648548695611,0.26949742819957,0.079568422199296,99.9812364578247
10.7,-1.5238457604437,0.283109991935195,0.065955858463671,99.3421614170074
10.8,-1.55429094829436,0.295757427553557,0.053308422845309,98.5530376434326
10.9,-1.53442942339923,0.307495369646236,0.04157048075263,96.894097328186
11,-1.45136713448723,0.318152238174253,0.030913612224613,93.2202339172363
11.1,-1.42197672996712,0.327324448670487,0.021741401728379,87.0381116867065
11.2,-1.44196052744145,0.334373727810751,0.014692122588115,73.9035844802856
11.3,-1.40617134612698,0.339139565265005,0.009926285133861,64.7067427635193
11.4,-1.42623157979219,0.342205780385869,0.006860070012997,57.2894275188446
11.5,-1.28596116735247,0.343863503082293,0.005202347316573,52.0950078964233
11.6,-1.15517545929447,0.344861216849827,0.004204633549039,43.6918705701828
11.7,-1.10282854146435,0.345661943519239,0.003403906879627,41.9288456439972
11.8,-0.994045982126406,0.346388273786549,0.002677576612317,39.9098843336105
11.9,-0.870020785049229,0.347166811072472,0.001899039326394,29.7707408666611
12,-0.827178617621024,0.347758783669355,0.001307066729511,30.547758936882
12.1,-0.693332633450447,0.348284477301288,0.000781373097578,28.9128363132477
12.2,-0.642603052087215,0.348753982424032,0.000311867974834,26.4052003622055
12.3,-0.506080167571773,0.349274637107683,-0.000208786708818,19.0612688660622
12.4,-0.399490381314329,0.349615640631944,-0.000549790233078,20.4866468906403
12.5,-0.342165791277593,0.349986499076918,-0.000920648678052,16.3051947951317
12.6,-0.221568660995004,0.350546668553856,-0.00148081815499,19.1254124045372
12.7,-0.216041461286938,0.350778184558367,-0.001712334159501,25.6180912256241
12.8,-0.19464816242588,0.351025797093593,-0.001959946694727,26.07561647892
12.9,-0.172569376125083,0.351232530032283,-0.002166679633417,27.7813017368317
13,-0.202008302769608,0.351328999269291,-0.002263148870425,26.087498664856
13.1,-0.217012606585425,0.351304331088089,-0.002238480689223,28.062492609024
13.2,-0.258631121038413,0.351216514545951,-0.002150664147086,28.9286196231842
13.3,-0.234960856681672,0.350995114749288,-0.001929264350422,26.8334239721298
13.4,-0.280447806710845,0.350620122618857,-0.001554272219991,27.3464143276215
13.5,-0.337693071087494,0.350219694792862,-0.001153844393996,31.9470643997192
13.6,-0.501784302358091,0.35000658093913,-0.000940730540264,24.4982033967972
13.7,-0.549889521046525,0.349619594232842,-0.000553743833976,23.5124841332436
13.8,-0.580848538237606,0.349057408613742,8.44178512365845E-06,27.3000836372375
13.9,-0.698148309373014,0.348653223913056,0.00041262648581,26.493626832962
14,-0.752711862503614,0.348399079839971,0.000666770558895,28.9226531982422
14.1,-0.850270098045566,0.348054872336838,0.001010978062027,36.6011679172516
14.2,-0.883837810794007,0.347712372550198,0.001353477848668,38.7603789567947
14.3,-0.938330199128774,0.347510074870753,0.001555775528113,36.3019198179245
14.4,-0.997812192568312,0.347432783332654,0.001633067066212,37.9251271486282
14.5,-0.980564674570216,0.347242155546956,0.00182369485191,49.7941792011261
14.6,-0.9519264485385,0.34696209302395,0.002103757374916,51.6814231872559
14.7,-1.03574454198468,0.346732364973376,0.00233348542549,56.5514266490936
14.8,-1.07935094211087,0.346564595253132,0.002501255145734,57.6508164405823
14.9,-0.962278976971361,0.346427128586979,0.002638721811886,56.9487750530243
15,-0.873986563104621,0.346369178368488,0.002696672030377,53.3181250095367
15.1,-0.763182175003675,0.346379235807297,0.002686614591568,55.7026088237762
15.2,-0.581528046011753,0.346413308827433,0.002652541571433,57.0991635322571
15.3,-0.411040905418879,0.346440687866788,0.002625162532078,53.7105917930603
15.4,-0.204449709861321,0.346465299035103,0.002600551363763,55.2442491054535
15.5,-0.028916141334063,0.346497435952139,0.002568414446727,53.9133250713348
15.6,0.202482110951879,0.346600702823804,0.002465147575062,48.8296121358871
15.7,0.504352591395671,0.346747915749975,0.002317934648891,41.5437877178192
15.8,0.841386160825281,0.346706105176912,0.002359745221954,36.7778360843658
15.9,1.19829733284617,0.346703826081101,0.002362024317765,41.5522873401642
16,1.50245266728146,0.346693482048259,0.002372368350607,39.5292043685913
16.1,1.90195002613469,0.346609602920998,0.002456247477868,39.4823342561722
16.2,2.18898182088382,0.346525531205401,0.002540319193464,40.12071788311
16.3,2.59099991805335,0.346507515083885,0.002558335314981,35.6712639331818
16.4,2.95564369286147,0.34649780718285,0.002568043216016,38.7755155563354
16.5,3.32592421320892,0.346421482429731,0.002644367969135,37.0754271745682
16.6,3.63750620889462,0.34630869019802,0.002757160200846,42.0544028282166
16.7,3.97248328825513,0.346305533106511,0.002760317292355,42.1139270067215
16.8,4.25853470463934,0.346280838494264,0.002785011904602,36.4433735609055
16.9,4.60450707850239,0.34621503341052,0.002850816988346,50.3598868846893
17,4.8025088312764,0.346360649909,0.002705200489866,52.622652053833
17.1,4.99538481322568,0.346468869898656,0.00259698050021,53.5536825656891
17.2,5.14283728523486,0.346511217059513,0.002554633339353,57.1006536483765
17.3,5.22922112147908,0.346623921718257,0.002441928680609,50.258469581604
17.4,5.2892054500516,0.346857019496994,0.002208830901871,49.6705263853073
17.5,5.26973077341398,0.347200462998341,0.001865387400525,49.4664072990418
17.6,5.20921911610904,0.347586068274376,0.00147978212449,42.8390055894852
17.7,5.05663895941651,0.347908588220777,0.001157262178089,49.2765575647354
17.8,4.9178745888979,0.348297528153683,0.000768322245183,46.7508554458618
17.9,4.72371529769488,0.348727664822427,0.000338185576438,41.837677359581
18,4.38782246456934,0.349120275322547,-5.44249236811289E-05,37.7869725227356
18.1,4.05000677123223,0.349562931576818,-0.000497081177952,38.9432996511459
18.2,3.61926734114814,0.349935812281601,-0.000869961882735,31.7705899477005
18.3,3.10666510460852,0.350161026587428,-0.001095176188562,21.6875031590462
18.4,2.67212077049075,0.350448801036094,-0.001382950637228,14.5305424928665
18.5,2.16793307860079,0.350793131722618,-0.001727281323752,9.65066999197006
18.6,1.56224532444177,0.351072715819956,-0.00200686542109,5.14376014471054
18.7,1.02690369139579,0.351198361263826,-0.00213251086496,10.8969159424305
18.8,0.376585386022025,0.351277173857576,-0.00221132345871,6.57142177224159
18.9,-0.286753910358315,0.351318535040967,-0.002252684642101,7.70003795623779
19,-0.953819317054898,0.351270552785959,-0.002204702387093,15.8272042870522
19.1,-1.61202762784715,0.351117748365857,-0.002051897966991,9.41967070102692
19.2,-2.2245184844013,0.350851079085438,-0.001785228686573,18.8332229852676
19.3,-2.89065111785406,0.35058166814726,-0.001515817748394,13.7475162744522
19.4,-3.5012097324535,0.350205086769911,-0.001139236371045,23.1679737567902
19.5,-4.10260021031503,0.349725266145689,-0.000659415746823,21.0329711437225
19.6,-4.63262635191363,0.349122160011169,-5.63096123034623E-05,30.7170927524567
19.7,-5.07500305693386,0.348665283861825,0.000400566537041,43.5054421424866
19.8,-5.6310416807637,0.348129250051543,0.000936600347322,47.2161740064621
19.9,-6.05108405400284,0.347555932770488,0.001509917628377,49.6084868907928
20,-6.38150456780988,0.346877681141085,-0.085078293341936,53.448224067688
20.1,-5.1291821317377,0.325288253910215,-0.063488866111066,-82.255744934082
20.2,-6.51356692308415,0.291490113859927,-0.029690726060777,-12.3160593211651
20.3,-7.03977370322528,0.269116767567128,-0.007317379767979,47.7853626012802
20.4,-7.33325859301958,0.260607403670881,0.001191984128268,59.827733039856
20.5,-7.26072042004127,0.258280588456223,0.003518799342927,62.2901082038879
20.6,-7.18861178156974,0.257704291783048,0.004095096016101,59.4656348228455
20.7,-7.03745109392819,0.257458616543072,0.004340771256077,64.0937209129334
20.8,-6.84640402286675,0.257308152037888,0.004491235761262,63.2072448730469
20.9,-6.56647426226882,0.257362597650424,0.004436790148725,54.0971398353577
21,-6.29842931746938,0.257452518825569,0.00434686897358,51.7120778560638
21.1,-5.87786358548945,0.25762200574337,0.004177382055779,46.5244323015213
21.2,-5.4201904478199,0.257918890704108,0.003880497095041,43.8685297966003
21.3,-4.92980715446199,0.258337376251766,0.003462011547383,41.5487170219421
21.4,-4.45832657701317,0.25884818437413,0.002951203425019,37.5589787960052
21.5,-3.90701427523806,0.259394055494013,0.002405332305136,37.9183113574982
21.6,-3.2537781985373,0.259947034707594,0.001852353091556,35.5844348669052
21.7,-2.68641780361612,0.26042349030823,0.001375897490919,34.875750541687
21.8,-2.08962349864084,0.260854399548118,0.000944988251031,28.8344383239746
21.9,-1.45208551963886,0.261343243269669,0.000456144529481,26.0503828525543
22,-0.885273850681099,0.261867578803647,-6.81910044977308E-05,21.1803391575813
22.1,-0.139863099969863,0.262284679239623,-0.000485291440473,27.2267431020737
22.2,0.370028904185477,0.262870011048347,-0.001070623249197,27.6094734668732
22.3,0.954994945796352,0.263320723516546,-0.001521335717396,26.6637086868286
22.4,1.51573374138322,0.263896944427595,-0.002097556628446,25.8175224065781
22.5,1.94283112290437,0.264337007013097,-0.002537619213947,23.5925614833832
22.6,2.39754806901167,0.264655913148517,-0.002856525349367,22.3172202706337
22.7,2.80677169231686,0.264848335820503,-0.003048948021354,26.0057777166367
22.8,3.19582373537969,0.265019846484648,-0.003220458685499,21.5091943740845
22.9,3.51534643642322,0.265170519241687,-0.003371131442538,19.5096611976624
23,3.8156237803135,0.265197834552431,-0.003398446753281,22.1270427107811
23.1,4.05916783796945,0.265185024416855,-0.003385636617705,16.5962547063828
23.2,4.16363197448667,0.265091948916027,-0.003292561116878,18.4528663754463
23.3,4.27637433409401,0.264867393848107,-0.003068006048958,13.8386443257332
23.4,4.3214492810003,0.264770571139721,-0.002971183340572,9.10365134477615
23.5,4.41930405070896,0.264493539627502,-0.002694151828353,6.48383051156998
23.6,4.3549511918286,0.264390680146131,-0.002591292346981,10.7657752931118
23.7,4.27910854090717,0.264261061235895,-0.002461673436746,8.63988548517227
23.8,4.20621180578776,0.264089004839939,-0.002289617040789,11.5128822624683
23.9,4.02636661189634,0.263920368662726,-0.002120980863576,11.1897692084312
24,3.85327530882311,0.26373110239226,-0.001931714593111,15.971514582634
24.1,3.61773782390572,0.263538817228478,-0.001739429429329,14.0349864959717
24.2,3.39658078673144,0.263374509666841,-0.001575121867692,10.7655674219131
24.3,3.18313185550676,0.263068619595761,-0.001269231796612,22.1732631325722
24.4,2.91423895068602,0.26298787980379,-0.00118849200464,23.2268944382668
24.5,2.70902198142546,0.262888415221634,-0.001089027422485,33.3859294652939
24.6,2.47654353674283,0.262780611785187,-0.000981223986037,33.3150833845139
24.7,2.1475726184856,0.262645876182677,-0.000846488383528,34.6181213855743
24.8,1.85032420544979,0.262445271155904,-0.000645883356755,39.7215515375137
24.9,1.7106138596679,0.262189652823219,-0.000390265024069,37.1468782424927
25,1.46430007060611,0.26193738987519,-0.000138002076041,37.5013440847397
25.1,1.2743324477094,0.261655729474369,0.00014365832478,43.6976194381714
25.2,1.13893437222858,0.261375954961306,0.000423432837844,42.4616515636444
25.3,1.0472180281247,0.261067352228788,0.000732035570361,45.1141148805618
25.4,0.907100084645563,0.26070254207271,0.00109684572644,46.3065832853317
25.5,0.839512830878461,0.260336916924853,0.001462470874296,49.2968499660492
25.6,0.759822701342251,0.260050580217389,0.00174880758176,42.6628053188324
25.7,0.735482168869862,0.259763418103825,0.002035969695324,45.1602190732956
25.8,0.776359180865584,0.259298475958407,0.002500911840742,41.2657678127289
25.9,0.785347843383765,0.258862192063879,0.002937195735271,39.9605959653854
26,0.833140843044794,0.258420707703776,0.003378680095374,42.9069936275482
26.1,0.920244779722235,0.257953619098425,0.003845768700725,47.8428393602371
26.2,1.02450013899562,0.257567932551238,0.004231455247912,48.4012722969055
26.3,1.07614429953766,0.25721711276298,0.00458227503617,51.0658919811249
26.4,1.22167553231561,0.256969921541295,0.004829466257854,50.3308475017548
