time,desired_D_w,hat{D_{w}},desired_D_q,hat{D_{q}},desired_theta,theta,e_{theta},tau_{q}
0,0.740476835142393,0.010433124880204,1.37350300364327,0,0.174532925199433,0,0.174532925199433,97.0299303531647
0.1,0.318999782061811,0.261674357969682,0.159033979714019,-0.079554096390373,0.174532925199433,0.015123120501962,0.159409804697471,100.07955409639
0.2,-0.104163013746865,-0.157126703998636,-1.0538873288446,-0.815836566328199,0.174532925199433,0.041963390367145,0.132569534832288,100.815836566328
0.3,-0.526856579305596,-0.539140089881285,-2.25200582723849,-1.86479463500405,0.174532925199433,0.070078043479135,0.104454881720298,101.603851460642
0.4,-0.946928259283546,-0.944095263754443,-3.42229844502294,-3.0129315918449,0.174532925199433,0.097693177904818,0.076839747294615,102.834445483065
0.5,-1.36224175510516,-1.35477135006502,-4.5521369577621,-4.16014459821259,0.174532925199433,0.124581571138722,0.049951354060711,103.56910494062
0.6,-1.77069104745112,-1.74779574008317,-5.62944478908596,-5.3439379608846,0.174532925199433,0.150175172557896,0.024357752641537,79.9847722923971
0.7,-2.17021410003331,-2.10530769974394,-6.64284564486487,-6.23489491402359,0.174532925199433,0.168573485898945,0.005959439300488,32.2943972772285
0.8,-2.55880624420686,-2.49203548879665,-7.58180195796909,-6.98730542263248,0.174532925199433,0.176163221602537,-0.001630296403104,21.9988141854689
0.9,-2.93453314644152,-2.89392092857954,-8.43674127827659,-7.96485818423097,0.174532925199433,0.177477553014296,-0.002944627814863,22.3013562659151
1,-3.29554326389295,-3.27823697446161,-9.19916892576479,-8.83130025636234,0.174532925199433,0.176832850241656,-0.002299925042223,26.8324558116106
1.1,-3.6400796972648,-3.63294735752323,-9.86176543178695,-9.53294523777687,0.174532925199433,0.176123907996597,-0.001590982797164,24.8776022416564
1.2,-3.96649135480541,-3.96462577105491,-10.4184675217479,-10.0805073988334,0.174532925199433,0.175764249351805,-0.001231324152373,27.5313168775932
1.3,-4.27324334659911,-4.27236384962313,-10.8645316377967,-10.6890041658905,0.174532925199433,0.175656689224958,-0.001123764025525,24.1502035686996
1.4,-4.55892653425245,-4.55746476676787,-11.1965792590401,-11.0295953258383,0.174532925199433,0.175648811432918,-0.001115886233485,40.2686687215674
1.5,-4.82226616759021,-4.82284350727293,-11.4126235451362,-11.3151908107683,0.174532925199433,0.175702713072799,-0.001169787873366,31.7076102085993
1.6,-5.06212954701492,-5.06294422213087,-11.5120771028299,-11.4677868889489,0.174532925199433,0.175892970035393,-0.00136004483596,33.2342647122064
1.7,-5.27753265769051,-5.27809795246308,-11.4957409498303,-11.5171632630375,0.174532925199433,0.176243626572776,-0.001710701373343,34.8781025869396
1.8,-5.46764572962614,-5.46723211898153,-11.3657750222174,-11.4728424879033,0.174532925199433,0.176484259611676,-0.001951334412243,33.8383231492955
1.9,-5.63179768599764,-5.62977349846243,-11.1256508361679,-11.317716461817,0.174532925199433,0.176598157842201,-0.002065232642768,28.6137580100691
2,-5.76947945058601,-5.76896211093849,-10.7800871682153,-11.003463288417,0.174532925199433,0.176551250464927,-0.002018325265494,36.5217316352035
2.1,-5.88034609396722,-5.88091833213903,-10.3349698567093,-10.5486614412212,0.174532925199433,0.176486145841053,-0.00195322064162,31.7500142163181
2.2,-5.96421780698632,-5.95812487466946,-9.7972570470653,-10.1178255307152,0.174532925199433,0.176512098717612,-0.001979173518179,25.0401880967095
2.3,-6.02107969902096,-6.01434668232852,-9.17487140156943,-9.56717594956837,0.174532925199433,0.176609929628799,-0.002077004429366,17.8291195580908
2.4,-6.05108042751419,-6.05860149209671,-8.47658096804521,-8.92923774503565,0.174532925199433,0.176629738847253,-0.00209681364782,32.860453448523
2.5,-6.05452967416304,-6.06272679631262,-7.71187054812769,-8.11509451894279,0.174532925199433,0.176686848133584,-0.002153922934151,22.1496995451879
2.6,-6.03189449191743,-6.03765630048581,-6.89080552319512,-7.38212718405135,0.174532925199433,0.17661010607299,-0.002077180873557,31.1845759931982
2.7,-5.98379455550495,-5.983364188494,-6.02389018261572,-6.60423701085812,0.174532925199433,0.176541494428456,-0.002008569229023,32.6614803580261
2.8,-5.91099635648298,-5.90892523807708,-5.12192265380637,-5.64335971637552,0.174532925199433,0.176610872743774,-0.002077947544341,25.3184327439863
2.9,-5.81440639176622,-5.80744495938125,-4.19584855610785,-4.78145835527847,0.174532925199433,0.176737452907838,-0.002204527708405,21.203217483849
3,-5.69506340212161,-5.69070416963994,-3.25661549060437,-3.92924270789704,0.174532925199433,0.176745146876303,-0.00221222167687,31.675449229885
3.1,-5.55412972420635,-5.55588221428214,-2.31503043621103,-2.88603017305153,0.174532925199433,0.176699302709386,-0.002166377509953,32.4097008464219
3.2,-5.39288182629142,-5.39767431600977,-1.38162204957759,-1.89782830533969,0.174532925199433,0.176695039124035,-0.002162113924602,20.9687963372229
3.3,-5.21270010381272,-5.21079050727756,-0.466509764047359,-1.07901587211957,0.174532925199433,0.176664198983318,-0.002131273783885,25.4184757086026
3.4,-5.0150580162778,-5.01302758141433,0.420718547043058,-0.060721941994223,0.174532925199433,0.176520878759312,-0.001987953559879,18.0737581930623
3.5,-4.80151065178643,-4.79975793235143,1.27111873272214,0.804745990056709,0.174532925199433,0.176250824956024,-0.001717899756591,16.9814469039252
3.6,-4.57368280946207,-4.57385491302189,2.07649092032246,1.66154886862094,0.174532925199433,0.175957185045988,-0.001424259846555,24.6231487832422
3.7,-4.33325669340792,-4.33416784325001,2.82946723045716,2.34811677270773,0.174532925199433,0.175799509212613,-0.00126658401318,14.9961583442127
3.8,-4.08195931437043,-4.08265794469656,3.52358563032467,3.09065338556666,0.174532925199433,0.175671665738056,-0.001138740538623,21.1863735657464
3.9,-3.82154969709668,-3.82373096434864,4.15334913122507,3.71996275965091,0.174532925199433,0.175642480754063,-0.00110955555463,18.9992237847674
4,-3.55380599239665,-3.55451264074901,4.71426977181331,4.38880181144826,0.174532925199433,0.175687837236189,-0.001154912036756,20.1051607148731
4.1,-3.28051259316112,-3.28183673136888,5.20289706948619,4.93366448739118,0.174532925199433,0.175718323753431,-0.001185398553999,19.8887017502492
4.2,-3.00344735304078,-3.0042832024031,5.61683086453576,5.30270732565217,0.174532925199433,0.175828521636606,-0.001295596437173,15.4676695950479
4.3,-2.72436900516597,-2.72550922418944,5.95471872145831,5.76971282671759,0.174532925199433,0.175806930294689,-0.001274005095256,14.9539653449171
4.4,-2.44500487619733,-2.4456428649566,6.21623828530359,6.08111887012177,0.174532925199433,0.175824283151682,-0.001291357952249,11.9232806679184
4.5,-2.16703898815629,-2.16692982546272,6.40206521456932,6.29756943752798,0.174532925199433,0.175696388421314,-0.001163463221881,7.7723617715594
4.6,-1.89210063692193,-1.89291157819606,6.513827522444,6.42840163908335,0.174532925199433,0.175509246016321,-0.000976320816888,13.284560571095
4.7,-1.621753532024,-1.62293028587838,6.55404735200129,6.54163270951904,0.174532925199433,0.175361360957055,-0.000828435757622,13.0948105478128
4.8,-1.35748557744746,-1.35937823088259,6.52607138536788,6.54427242647943,0.174532925199433,0.175382239939313,-0.00084931473988,15.4802949987716
4.9,-1.10069936763335,-1.10275634279067,6.43399123938765,6.45531313375427,0.174532925199433,0.17558676404048,-0.001053838841047,11.8959466938596
5,-0.852703466758755,-0.853915158932715,6.28255532873471,6.37318364126834,0.174532925199433,0.175775776789323,-0.00124285158989,15.1764524842962
5.1,-0.614704532757221,-0.613621946858881,6.0770737800484,6.22645591628303,0.174532925199433,0.175917266295708,-0.001384341096275,10.8058261381413
5.2,-0.387800340452898,-0.38713650034818,5.82331805617696,5.9525873268645,0.174532925199433,0.175795963045384,-0.001263037845951,14.6139744912584
5.3,-0.172973750686691,-0.173421953089207,5.52741699718195,5.67203607382367,0.174532925199433,0.175694479459182,-0.001161554259749,17.7078634875815
5.4,0.028912335528965,0.028539007482554,5.19575100399889,5.33169259477814,0.174532925199433,0.175660592885747,-0.001127667686314,14.2880330498103
5.5,0.217119006913682,0.216796778362241,4.83484608166552,5.00896535295651,0.174532925199433,0.175666268602118,-0.001133343402685,13.596441229399
5.6,0.391034333307717,0.391861346962104,4.45126942237397,4.69868452080191,0.174532925199433,0.175679883945185,-0.001146958745752,16.4339992331654
5.7,0.550175304460018,0.549672957672384,4.05152814528459,4.27105521401707,0.174532925199433,0.175630801740413,-0.00109787654098,15.0375028924054
5.8,0.694188710697058,0.694559495542256,3.64197272148947,3.81036401544054,0.174532925199433,0.175621740906611,-0.001088815707178,15.9831240698294
5.9,0.822850968530541,0.823488848533122,3.22870650056905,3.42492430808352,0.174532925199433,0.175604494451229,-0.001071569251796,16.2669929921408
6,0.936066902779071,0.936954783956198,2.81750262204413,3.00372153024047,0.174532925199433,0.175547114574404,-0.001014189374971,18.2564342071596
6.1,1.03386750516748,1.03098901424051,2.4137294432155,2.58589377373845,0.174532925199433,0.175605281656352,-0.001072356456919,20.2959687474331
6.2,1.11640669755993,1.12316221629208,2.02228544720867,2.18341619712269,0.174532925199433,0.175641882214536,-0.001108957015103,18.7470737006053
6.3,1.18395713591356,1.17712503652682,1.64754441454015,1.79809532561928,0.174532925199433,0.175647718437219,-0.001114793237786,18.6246434648928
6.4,1.23690509864385,1.22923957299757,1.29331145140754,1.46690261303854,0.174532925199433,0.175632964033401,-0.001100038833968,18.1493495708756
6.5,1.27574451031134,1.27614758172672,0.962790271515273,1.09180376755292,0.174532925199433,0.17567659595786,-0.001143670758427,15.8579765178055
6.6,1.30107015831293,1.30814086124421,0.658561928981748,0.803527093678806,0.174532925199433,0.175690519282044,-0.001157594082611,21.3470326296984
6.7,1.31357016653618,1.32471932393237,0.38257500113904,0.473492910115193,0.174532925199433,0.175650844466889,-0.001117919267456,19.6349163158255
6.8,1.31401779566269,1.32000420739164,0.136147025190871,0.215011191726466,0.174532925199433,0.175663370572887,-0.001130445373454,20.562534677624
6.9,1.30326264493988,1.30090957154033,-0.080023195013642,0.010008290205448,0.174532925199433,0.175650947381085,-0.001118022181652,24.3091278525253
7,1.2822213347408,1.27358008836984,-0.265832973314228,-0.208958674648031,0.174532925199433,0.175682288397849,-0.001149363198416,21.0101288449552
7.1,1.25186775306193,1.24318464767312,-0.421743542284222,-0.401542789713805,0.174532925199433,0.175661917280551,-0.001128992081118,22.7177825639409
7.2,1.21322295224141,1.21169772175967,-0.548739145246531,-0.47755133219182,0.174532925199433,0.175689926707806,-0.001157001508373,18.4262279779476
7.3,1.16734478458921,1.17456881053854,-0.648278424142547,-0.656638931349505,0.174532925199433,0.175706364518708,-0.001173439319275,19.0946995130336
7.4,1.11531736728986,1.12433476270898,-0.722239218740344,-0.687715749937471,0.174532925199433,0.17568427611973,-0.001151350920297,19.4638956000389
7.5,1.05824046785435,1.06002551016602,-0.772857981645561,-0.775572980714541,0.174532925199433,0.175744961039724,-0.001212035840291,19.5789191377885
7.6,0.997218901555844,0.993827355066876,-0.802665079709038,-0.766419861565805,0.174532925199433,0.175725742948443,-0.00119281774901,20.4714606144535
7.7,0.93335203168419,0.924081131548466,-0.814417294899909,-0.824600770272944,0.174532925199433,0.175690828038091,-0.001157902838658,18.9404326818368
7.8,0.867723462102605,0.859966663965933,-0.811028856141588,-0.808042499748739,0.174532925199433,0.175648779474161,-0.001115854274728,23.2498036954084
7.9,0.80139100950092,0.802099332554461,-0.795502328022768,-0.783659484053315,0.174532925199433,0.175633433921906,-0.001100508722473,19.207148220206
8,0.735377039930238,0.745460060578861,-0.770860653146477,-0.78636877644961,0.174532925199433,0.1756703332637,-0.001137408064267,23.4033661376328
8.1,0.670659250699981,0.677681638655199,-0.740081593023132,-0.777095873083777,0.174532925199433,0.175655080142255,-0.001122154942822,22.2396674940249
8.2,0.6081619745491,0.607152741820496,-0.706035739091919,-0.692348839992198,0.174532925199433,0.175701629224642,-0.001168704025209,15.2322790644108
8.3,0.548748078206471,0.541154512731525,-0.67142917227577,-0.707614573779347,0.174532925199433,0.175680441551515,-0.001147516352082,21.8015135853913
8.4,0.493211522068534,0.483746133095674,-0.638751738374195,-0.6623707195634,0.174532925199433,0.175682492199226,-0.001149566999793,21.3407791634912
8.5,0.442270641794921,0.442341200489259,-0.610231779809684,-0.576307787659513,0.174532925199433,0.17570168891597,-0.001168763716537,18.9573729178933
8.6,0.396562206201789,0.406060576962244,-0.587798024250744,-0.592583698998835,0.174532925199433,0.175726289434177,-0.001193364234744,18.2359310815443
8.7,0.356636298973434,0.364124882429716,-0.573049180131506,-0.589411692754131,0.174532925199433,0.175768243260964,-0.001235318061531,23.2558332253851
8.8,0.322952064472763,0.321705812868528,-0.567231630925171,-0.584513237810395,0.174532925199433,0.175786456485,-0.001253531285568,19.7887423542502
8.9,0.295874350370662,0.287655921401425,-0.571225457165064,-0.57331006038241,0.174532925199433,0.175750061158272,-0.001217135958839,23.500156206966
9,0.275671271996762,0.269023247869804,-0.585538850655401,-0.534899097514456,0.174532925199433,0.17572389472331,-0.001190969523877,21.4003662882569
9.1,0.262512715304472,0.265324394609362,-0.610310822087899,-0.631107019465125,0.174532925199433,0.175753685461267,-0.001220760261834,20.5596741309573
9.2,0.256469787208372,0.26522144961857,-0.645321944341257,-0.636492617987681,0.174532925199433,0.175773964484614,-0.001241039285181,19.4945349773398
9.3,0.257515213859694,0.266308698394316,-0.690012721945541,-0.66718628848701,0.174532925199433,0.17575191180012,-0.001218986600687,22.6590188428274
9.4,0.265524679243899,0.265365695457884,-0.743509035245385,-0.751504364858622,0.174532925199433,0.175770647949863,-0.00123772275043,19.675852421175
9.5,0.280279088381154,0.271804744334104,-0.804653978196999,-0.792085733920279,0.174532925199433,0.175762757002002,-0.001229831802569,19.3670239119827
9.6,0.301467731453203,0.292729649011379,-0.87204529374229,-0.804023204177436,0.174532925199433,0.175736162350691,-0.001203237151259,22.1984428742824
9.7,0.328692317434638,0.327237836567125,-0.944077512294718,-0.909341140996594,0.174532925199433,0.175703194595142,-0.001170269395709,20.3449107849709
9.8,0.361471838337264,0.368226718547165,-1.01898781870596,-0.9970974568717,0.174532925199433,0.175689811001825,-0.001156885802392,21.592671835839
9.9,0.399248218044903,0.409079593594833,-1.09490461247661,-1.08230970926122,0.174532925199433,0.175751056476075,-0.001218131276642,22.2770076257689
10,0.441392692981841,0.441327266115307,-1.16989768588011,-1.13575843986766,0.174532925199433,0.175732453081285,-0.001199527881852,21.5108135145594
10.1,0.487212865576892,0.403853832856911,-1.24202892565869,-1.61287780714517,0.349065850398866,0.187397654640415,0.161668195758451,101.573753318315
10.2,0.535960365708784,0.498153071840807,-1.30940244620891,-1.36093188389762,0.349065850398866,0.209438150547766,0.139627699851099,100.513490925875
10.3,0.586839050095198,0.577929115800311,-1.3702130854964,-1.34176384911798,0.349065850398866,0.232967465196654,0.116098385202212,101.341763849118
10.4,0.639013664960482,0.633127792996809,-1.42279223873864,-1.38777032978335,0.349065850398866,0.256214260247891,0.092851590150975,101.387770329783
10.5,0.691618893324219,0.68351050398392,-1.46565006821122,-1.42876378504928,0.349065850398866,0.278875925261026,0.07018992513784,101.146577515289
10.6,0.743768704927603,0.74177668753374,-1.49751320905657,-1.46540445557691,0.349065850398866,0.300900419934694,0.048165430464172,101.465404455577
10.7,0.794565924184453,0.802150504491393,-1.51735718906816,-1.52246172859626,0.349065850398866,0.322233999666732,0.026831850732134,97.0873814387556
10.8,0.843111929630607,0.892769938648569,-1.5244328931525,-1.66528930521238,0.349065850398866,0.340128842970864,0.008937007428002,51.9189785943054
10.9,0.888516397165322,0.960738577929682,-1.51828652834401,-1.4541321388715,0.349065850398866,0.348181899518066,0.0008839508808,32.4750238052839
11,0.929906998940959,0.972199884426732,-1.49877268044906,-1.387930211148,0.349065850398866,0.349026415708096,3.94346907698906E-05,37.155130800328
11.1,0.966438970066535,0.975853628237634,-1.46606019603818,-1.46616702432225,0.349065850398866,0.347930060016653,0.001135790382213,40.1176751172025
11.2,0.997304456344163,0.987466878882058,-1.42063077087077,-1.46359058565938,0.349065850398866,0.347199671562651,0.001866178836215,40.1158705586895
11.3,1.02174155804649,1.01491416795524,-1.36327027513074,-1.40846587218038,0.349065850398866,0.34703110851134,0.002034741887526,43.9583710531115
11.4,1.03904298725335,1.04245767880942,-1.295052994249,-1.32176615651963,0.349065850398866,0.347105789537145,0.001960060861721,39.8480985349071
11.5,1.04856425947636,1.05967977169884,-1.21731910878942,-1.2124067549029,0.349065850398866,0.347202349186218,0.001863501212648,38.241688013486
11.6,1.04973134418486,1.05443217133277,-1.13164587515062,-1.14118442876447,0.349065850398866,0.347183715562312,0.001882134836554,41.7239247356187
11.7,1.04204770337344,1.03765768677804,-1.03981309808249,-1.04034170798411,0.349065850398866,0.347169263711336,0.001896586687529,41.3456045120155
11.8,1.0251006524428,1.01543719062319,-0.94376360379687,-0.969829190189387,0.349065850398866,0.347172341048599,0.001893509350267,41.6168382052727
11.9,0.998566983360347,0.991990836469071,-0.84555952654552,-0.938738901713483,0.349065850398866,0.347110996800621,0.001954853598245,37.3119756771117
12,0.962217796276966,0.963973989100799,-0.747335309974818,-0.792458379549829,0.349065850398866,0.34711151738409,0.001954333014776,38.7280372026394
12.1,0.915922492451152,0.926654974779137,-0.651248395666154,-0.693495422692882,0.349065850398866,0.347087199075586,0.00197865132328,35.8425869048554
12.2,0.859651888416063,0.86603420996068,-0.559428623671273,-0.578843659228481,0.349065850398866,0.347023831027805,0.002042019371061,40.4775998056595
12.3,0.793480418760424,0.791947295121804,-0.473927402534895,-0.525707178068339,0.349065850398866,0.347061327688542,0.002004522710323,42.1217085647108
12.4,0.717587402619307,0.709858971108009,-0.39666771860614,-0.431623554906246,0.349065850398866,0.34711711482281,0.001948735576055,39.2529184586614
12.5,0.632257356921834,0.623534390485014,-0.329396046092641,-0.3437737308645,0.349065850398866,0.347167435560637,0.001898414838229,40.8656636558676
12.6,0.537879347553894,0.534023397610592,-0.273637190403019,-0.354754016996902,0.349065850398866,0.347158703832492,0.001907146566374,40.8548554641023
12.7,0.434945377798196,0.43566590758335,-0.230653048328277,-0.249749753081381,0.349065850398866,0.347161462892959,0.001904387505907,40.6475308867331
12.8,0.324047821643135,0.328297450860246,-0.20140620037383,-0.22251743056851,0.349065850398866,0.34722617040941,0.001839679989456,40.8332123158224
12.9,0.205875917738153,0.210772430203765,-0.186529164269152,-0.174535355071237,0.349065850398866,0.347213538691801,0.001852311707064,40.0957892746727
13,0.081211347848282,0.08692724359368,-0.186300035882912,-0.171881362056622,0.349065850398866,0.347203537689975,0.001862312708891,40.4851252280234
13.1,-0.049077068442411,-0.045440486274443,-0.200625126295959,-0.174232947111889,0.349065850398866,0.347201004982017,0.001864845416849,42.9622586839207
13.2,-0.184039523375608,-0.180461746486569,-0.229029073745003,-0.203869028535009,0.349065850398866,0.347202473343674,0.001863377055192,37.5474306778575
13.3,-0.32265216826328,-0.324760875933866,-0.270652768895142,-0.25833919592642,0.349065850398866,0.347132628683567,0.001933221715299,37.540579586704
13.4,-0.463824804606705,-0.469387433021429,-0.324259283973714,-0.258518223736023,0.349065850398866,0.347156083763996,0.00190976663487,36.5711132335398
